Mouse_ID,Time,State,Lifetime,Intensity
1610,2,2,4.159,2.3301
1610,2,2,4.1608,2.2914
1610,2,2,4.1928,2.5049
1610,2,2,4.1572,2.3097
1610,2,2,4.1585,2.2882
1610,2,2,4.1658,2.28305
1610,2,2,4.16955,2.2956
1610,2,2,4.15365,2.27535
1610,2,2,4.15315,2.35215
1610,2,2,4.1427,2.24655
1610,2,2,4.1475,2.2986
1610,2,2,4.1477,2.3099
1610,2,2,4.15005,2.3062
1610,2,2,4.1544,2.3271
1610,2,2,4.1458,2.2545
1610,2,2,4.1488,2.2469
1610,2,2,4.1521,2.2133
1610,2,2,4.1663,2.2541
1610,2,2,4.15235,2.18605
1610,2,2,4.1542,2.20465
1610,2,2,4.1544,2.213
1610,2,2,4.1591,2.2203
1610,2,2,4.155,2.2031
1610,2,2,4.1621,2.2201
1610,2,2,4.143,2.3191
1610,2,2,4.1645,2.31405
1610,2,2,4.1856,2.2873
1610,2,2,4.19,2.2569
1610,2,2,4.184,2.2618
1610,2,2,4.1856,2.2218
1610,2,2,4.1801,2.23575
1610,2,2,4.1837,2.2386
1610,2,2,4.1823,2.2226
1610,2,2,4.189,2.2967
1610,2,2,4.1862,2.3461
1610,2,2,4.1823,2.2663
1610,2,2,4.1837,2.24105
1610,2,2,4.18,2.24235
1610,2,2,4.1816,2.2144
1610,2,2,4.1813,2.2337
1610,2,2,4.1835,2.2372
1610,2,2,4.1834,2.2234
1610,2,2,4.1689,2.39305
1610,2,2,4.1654,2.32205
1610,2,2,4.18805,2.3165
1610,2,2,4.1974,2.2765
1610,2,3,4.235,2.4913
1610,2,3,4.23255,2.516
1610,2,3,4.2362,2.4795
1610,2,3,4.2303,2.4636
1610,2,3,4.2259,2.4186
1610,2,3,4.2176,2.395
1610,2,3,4.2632,2.5009
1610,2,3,4.2597,2.4914
1610,2,3,4.2531,2.468
1610,2,3,4.2552,2.453
1610,3,2,4.1277,3.7334
1610,3,2,4.1437,3.7249
1610,3,2,4.1375,3.847
1610,3,2,4.11955,3.70395
1610,3,2,4.1304,3.707
1610,3,2,4.11845,3.72325
1610,3,2,4.12315,3.68815
1610,3,2,4.1456,3.7719
1610,3,2,4.1426,3.7427
1610,3,2,4.1102,3.7599
1610,3,2,4.13155,3.8625
1610,3,2,4.1169,3.72375
1610,3,2,4.1165,3.7944
1610,3,2,4.1611,3.7343
1610,3,2,4.1706,3.7285
1610,3,2,4.1608,3.6435
1610,3,2,4.1699,3.702
1610,3,2,4.17625,3.6838
1610,3,2,4.1802,3.68905
1610,3,2,4.17685,3.6466
1610,3,2,4.1281,3.6983
1610,3,2,4.1354,3.67735
1610,3,2,4.146,3.6948
1610,3,2,4.1616,3.6701
1610,3,2,4.1497,3.73835
1610,3,2,4.1658,3.7674
1610,3,3,4.21965,4.0791
1610,3,3,4.1942,3.9357
1610,3,3,4.2382,4.00595
1610,3,3,4.2458,3.8881
1610,3,3,4.2219,3.9406
1611,1,2,4.1169,1.0338
1611,1,2,4.1217,1.03685
1611,1,2,4.1308,1.0378
1611,1,2,4.1379,1.0417
1611,1,2,4.1362,1.0326
1611,1,2,4.14055,1.03695
1611,1,2,4.1291,1.041
1611,1,2,4.141,1.0429
1611,1,2,4.1413,1.0402
1611,1,2,4.14315,1.0458
1611,1,2,4.1411,1.0425
1611,1,2,4.1396,1.04295
1611,1,2,4.1327,1.0659
1611,1,2,4.13175,1.0569
1611,1,2,4.1432,1.0589
1611,1,2,4.1483,1.0639
1611,1,2,4.1476,1.0583
1611,1,2,4.2618,1.092
1611,1,3,4.1528,1.0701
1611,1,3,4.1992,1.13975
1611,1,3,4.19905,1.14165
1611,1,3,4.2074,1.1564
1611,1,3,4.2085,1.172
1611,1,3,4.211,1.15935
1611,1,3,4.21325,1.1897
1611,1,3,4.1852,1.1095
1611,1,3,4.2052,1.1558
1611,1,3,4.2125,1.1866
1611,1,3,4.212,1.17515
1611,2,2,4.1674,1.2291
1611,2,2,4.17095,1.2269
1611,2,2,4.1913,1.2394
1611,2,2,4.2021,1.2506
1611,2,2,4.2041,1.248
1611,2,2,4.1953,1.2908
1611,2,2,4.1808,1.2377
1611,2,2,4.1882,1.2277
1611,2,2,4.19415,1.24
1611,2,2,4.208,1.2552
1611,2,2,4.2134,1.2621
1611,2,2,4.193,1.245
1611,2,2,4.20285,1.25055
1611,2,2,4.21835,1.26755
1611,2,2,4.2154,1.2565
1611,2,2,4.21835,1.26195
1611,2,2,4.1902,1.2501
1611,2,2,4.2008,1.2546
1611,2,2,4.2081,1.258
1611,2,3,4.2417,1.3595
1611,2,3,4.2608,1.38045
1611,2,3,4.2723,1.3823
1611,2,3,4.2364,1.3457
1611,2,3,4.2653,1.3872
1611,2,3,4.2653,1.3426
1611,2,3,4.2771,1.3923
1611,2,3,4.26935,1.3836
1611,2,3,4.2879,1.4028
1611,2,3,4.27115,1.37905
1611,2,3,4.2604,1.3567
1611,2,3,4.2661,1.408
1611,3,2,4.1575,1.9073
1611,3,2,4.1328,1.8349
1611,3,2,4.1312,1.82215
1611,3,2,4.1379,1.8208
1611,3,2,4.1469,1.8292
1611,3,2,4.1535,1.8258
1611,3,2,4.1355,1.8738
1611,3,2,4.12755,1.8313
1611,3,2,4.15535,1.87455
1611,3,2,4.1428,1.8201
1611,3,2,4.1513,1.8159
1611,3,2,4.1629,1.8264
1611,3,2,4.1723,1.83485
1611,3,2,4.1797,1.8378
1611,3,2,4.1772,1.8368
1611,3,2,4.1782,1.8304
1611,3,2,4.1701,1.83305
1611,3,2,4.1704,1.8237
1611,3,2,4.1797,1.838
1611,3,2,4.1725,1.8267
1611,3,2,4.1763,1.8373
1611,3,2,4.1799,1.83905
1611,3,2,4.181,1.8436
1611,3,2,4.17735,1.81
1611,3,2,4.1781,1.8389
1611,3,2,4.1824,1.8433
1611,3,2,4.1412,1.833
1611,3,2,4.155,1.84295
1611,3,2,4.1696,1.8642
1611,3,2,4.1791,1.86425
1611,3,2,4.1736,1.864
1611,3,2,4.1789,1.866
1611,3,2,4.17885,1.8605
1611,3,2,4.17765,1.8469
1611,3,2,4.1769,1.85215
1611,3,2,4.147,1.865
1611,3,2,4.1442,1.8435
1611,3,2,4.1565,1.8687
1611,3,2,4.16785,1.877
1611,3,2,4.1673,1.8653
1611,3,2,4.1716,1.8645
1611,3,3,4.193,1.99545
1611,3,3,4.218,2.0334
1611,3,3,4.2086,1.9839
1611,3,3,4.22775,2.0294
1611,3,3,4.2276,2.0267
1611,3,3,4.2494,2.0599
1611,3,3,4.2481,2.0396
1611,3,3,4.23235,1.9974
1611,3,3,4.2423,2.0301
1611,3,3,4.2311,1.9996
1611,3,3,4.22865,2.0219
1611,3,3,4.2283,1.98985
1611,3,3,4.24495,2.04935
1611,3,3,4.2482,2.06715
1611,3,3,4.21335,2.04105
1611,3,3,4.229,2.0793
1611,3,3,4.20855,1.9767
1611,3,3,4.2355,2.0647
1611,3,3,4.24405,2.09095
1611,3,3,4.247,2.0842
1611,3,3,4.24445,2.0581
1611,3,3,4.1982,2.0428
1611,3,3,4.2173,2.0546
1611,3,3,4.2309,2.0813
1612,2,2,4.2171,3.1664
1612,2,2,4.1954,3.0188
1612,2,2,4.196,2.9804
1612,2,2,4.194,2.9604
1612,2,2,4.1862,2.9798
1612,2,2,4.2019,2.97775
1612,2,2,4.2083,3.00705
1612,2,2,4.197,2.9774
1612,2,2,4.1982,2.9706
1612,2,2,4.207,2.9943
1612,2,2,4.2204,3.02405
1612,2,2,4.2113,2.978
1612,2,2,4.21455,3.0001
1612,2,2,4.1756,3.05765
1612,2,2,4.1924,3.0212
1612,2,2,4.1952,2.99285
1612,2,2,4.2041,3.0046
1612,2,2,4.21355,2.99965
1612,2,3,4.2714,3.3648
1612,2,3,4.2799,3.489
1612,2,3,4.2714,3.3674
1612,2,3,4.29385,3.4588
1612,2,3,4.2299,3.1099
1612,2,3,4.24835,3.27285
1612,2,3,4.2833,3.4773
1612,2,3,4.26965,3.34065
1612,2,3,4.29075,3.36965
1612,2,3,4.2813,3.375
1612,2,3,4.26765,3.3667
1612,2,3,4.2781,3.40685
1612,3,2,4.2273,4.5716
1612,3,2,4.2295,4.5747
1612,3,2,4.22725,4.57185
1612,3,2,4.2318,4.59145
1612,3,2,4.2172,4.6346
1612,3,2,4.21535,4.622
1612,3,2,4.2195,4.532
1612,3,2,4.2238,4.54655
1612,3,2,4.2124,4.5757
1612,3,2,4.2238,4.59585
1612,3,2,4.2272,4.57025
1612,3,2,4.2298,4.5126
1612,3,2,4.23705,4.49965
1612,3,2,4.2436,4.48535
1612,3,2,4.24865,4.49215
1612,3,2,4.2468,4.48125
1612,3,2,4.2491,4.502
1612,3,2,4.2487,4.4802
1612,3,2,4.2497,4.48305
1612,3,2,4.2501,4.4775
1612,3,2,4.2554,4.4956
1612,3,2,4.2613,4.5347
1612,3,2,4.2573,4.5042
1612,3,2,4.2579,4.496
1612,3,2,4.2563,4.5056
1612,3,2,4.2601,4.533
1612,3,2,4.2562,4.5015
1612,3,2,4.261,4.5214
1612,3,2,4.23,4.5158
1612,3,2,4.23905,4.51745
1612,3,2,4.2423,4.4881
1612,3,2,4.2505,4.4934
1612,3,2,4.256,4.5139
1612,3,2,4.2532,4.4878
1612,3,2,4.2549,4.4914
1612,3,2,4.2614,4.5166
1612,3,2,4.25215,4.47535
1612,3,2,4.2528,4.4674
1612,3,2,4.25365,4.46915
1612,3,2,4.2552,4.5274
1612,3,2,4.22005,4.43625
1612,3,2,4.22045,4.4547
1612,3,2,4.2299,4.4594
1612,3,3,4.26955,5.00345
1612,3,3,4.2699,4.96105
1612,3,3,4.2767,5.01305
1612,3,3,4.28215,4.8512
1612,3,3,4.2894,4.8984
1612,3,3,4.298,4.9266
1612,3,3,4.2968,4.9561
1612,3,3,4.2793,4.7381
1612,3,3,4.2998,4.9349
1612,3,3,4.29925,4.9662
1612,3,3,4.29935,4.8915
1612,3,3,4.30715,4.98865
1612,3,3,4.2744,4.7432
1612,3,3,4.2876,4.8185
1612,3,3,4.28815,4.7461
1612,3,3,4.2858,4.79625
1612,3,3,4.29655,4.9209
1612,3,3,4.2799,4.7942
1626,1,2,4.12145,1.55215
1626,1,2,4.1246,1.5534
1626,1,2,4.1239,1.54
1626,1,2,4.1267,1.5678
1626,1,2,4.1184,1.54
1626,1,2,4.1208,1.53
1626,1,2,4.1346,1.5561
1626,1,2,4.1204,1.5359
1626,1,2,4.1247,1.54015
1626,1,2,4.1254,1.5287
1626,1,2,4.12975,1.53305
1626,1,2,4.11455,1.5369
1626,1,2,4.1216,1.51595
1626,1,2,4.12645,1.53455
1626,1,2,4.112,1.5545
1626,1,2,4.1265,1.55635
1626,1,2,4.12065,1.54285
1626,1,2,4.1331,1.5492
1626,1,2,4.13925,1.5437
1626,1,2,4.13705,1.54195
1626,1,2,4.135,1.5427
1626,1,2,4.1263,1.5492
1626,1,2,4.1232,1.5503
1626,1,2,4.1343,1.5509
1626,1,2,4.1431,1.5631
1626,1,2,4.1462,1.5513
1626,1,2,4.14145,1.56495
1626,1,2,4.15195,1.58735
1626,1,2,4.1388,1.5504
1626,1,2,4.1385,1.5672
1626,1,2,4.1378,1.5492
1626,1,2,4.1387,1.5446
1626,1,2,4.1388,1.56175
1626,1,2,4.1248,1.5793
1626,1,2,4.1357,1.5631
1626,1,2,4.1349,1.5474
1626,1,2,4.1342,1.5415
1626,1,2,4.13595,1.5599
1626,1,2,4.1398,1.5792
1626,1,2,4.1423,1.56405
1626,1,2,4.1453,1.5553
1626,1,2,4.1438,1.5736
1626,1,2,4.1508,1.5825
1626,1,2,4.1528,1.5804
1626,1,2,4.1507,1.5833
1626,1,2,4.1536,1.5777
1626,1,2,4.1291,1.5862
1626,1,2,4.1393,1.6033
1626,1,2,4.1402,1.5935
1626,1,3,4.20285,1.69675
1626,1,3,4.1707,1.6582
1626,1,3,4.2025,1.72785
1626,1,3,4.20105,1.68395
1626,1,3,4.1893,1.6327
1626,1,3,4.2066,1.6899
1626,1,3,4.2193,1.72385
1626,1,3,4.2252,1.6672
1626,1,3,4.221,1.707
1626,1,3,4.1788,1.6868
1626,1,3,4.2109,1.7108
1626,1,3,4.2241,1.7212
1626,1,3,4.227,1.6846
1626,1,3,4.2133,1.6994
1626,1,3,4.2236,1.6962
1626,1,3,4.209,1.6883
1626,1,3,4.1913,1.6983
1626,1,3,4.219,1.7288
1626,1,3,4.20875,1.59935
1626,1,3,4.21205,1.7212
1626,1,3,4.222,1.7243
1626,1,3,4.19425,1.6392
1626,2,2,4.16295,2.75245
1626,2,2,4.1778,2.73525
1626,2,2,4.1877,2.7409
1626,2,2,4.17,2.7329
1626,2,2,4.1897,2.7471
1626,2,2,4.2142,2.7565
1626,2,2,4.2304,2.7789
1626,2,2,4.244,2.794
1626,2,2,4.2146,2.786
1626,2,2,4.221,2.76245
1626,2,2,4.2265,2.7777
1626,2,2,4.2304,2.7984
1626,2,2,4.2309,2.7984
1626,2,2,4.2369,2.8104
1626,2,2,4.1832,2.7994
1626,2,2,4.22045,2.847
1626,2,2,4.2479,2.868
1626,2,2,4.2629,2.8891
1626,2,2,4.1974,2.8517
1626,2,2,4.2153,2.85495
1626,2,2,4.2322,2.8479
1626,2,3,4.2455,3.0519
1626,2,3,4.2725,3.1661
1626,2,3,4.30575,3.2799
1626,2,3,4.3352,3.3131
1626,2,3,4.30635,3.30995
1626,2,3,4.3007,3.2683
1626,2,3,4.3184,3.3397
1626,2,3,4.31155,3.36305
1626,2,3,4.3475,3.4737
1626,3,2,4.143,2.2498
1626,3,2,4.14755,2.2992
1626,3,2,4.13695,2.2028
1626,3,2,4.1448,2.2007
1626,3,2,4.1369,2.2426
1626,3,2,4.1322,2.225
1626,3,2,4.1343,2.2518
1626,3,2,4.134,2.2202
1626,3,2,4.1349,2.2336
1626,3,2,4.1222,2.2131
1626,3,2,4.13075,2.23065
1626,3,2,4.13065,2.2377
1626,3,2,4.13335,2.1776
1626,3,2,4.13325,2.2283
1626,3,2,4.1307,2.153
1626,3,2,4.1322,2.1962
1626,3,2,4.1387,2.147
1626,3,2,4.1375,2.1553
1626,3,2,4.15,2.1823
1626,3,2,4.1472,2.2083
1626,3,2,4.1446,2.1952
1626,3,2,4.15305,2.20995
1626,3,2,4.1409,2.2364
1626,3,2,4.14745,2.2068
1626,3,2,4.1512,2.22115
1626,3,2,4.15665,2.2803
1626,3,2,4.1512,2.2485
1626,3,2,4.1551,2.2179
1626,3,2,4.1559,2.2184
1626,3,2,4.16155,2.2306
1626,3,2,4.1616,2.2354
1626,3,2,4.16515,2.2386
1626,3,2,4.1411,2.25825
1626,3,2,4.14245,2.2209
1626,3,2,4.1522,2.2276
1626,3,2,4.1363,2.2402
1626,3,2,4.1437,2.2508
1626,3,2,4.14345,2.22895
1626,3,2,4.1374,2.2386
1626,3,2,4.1457,2.2051
1626,3,2,4.1496,2.2095
1626,3,2,4.15005,2.2029
1626,3,2,4.15335,2.3346
1626,3,2,4.1547,2.2803
1626,3,2,4.1468,2.2626
1626,3,2,4.143,2.2552
1626,3,3,4.2241,2.423
1626,3,3,4.2065,2.3488
1626,3,3,4.2131,2.2703
1626,3,3,4.2028,2.3714
1626,3,3,4.2114,2.3523
1626,3,3,4.2028,2.1802
1626,3,3,4.202,2.2428
1626,3,3,4.21095,2.3494
1626,3,3,4.2222,2.35215
1626,3,3,4.2246,2.3451
1626,3,3,4.2046,2.3082
1626,3,3,4.2102,2.33545
1626,3,3,4.2199,2.2586
1626,3,3,4.2121,2.32085
1626,3,3,4.22605,2.2296
1626,3,3,4.21585,2.31645
1626,3,3,4.2163,2.2319
1626,3,3,4.20165,2.26295
1626,3,3,4.20385,2.3796
1626,3,3,4.2037,2.32455
1629,1,2,4.1337,1.6617
1629,1,2,4.137,1.6497
1629,1,2,4.1409,1.6459
1629,1,2,4.14445,1.6442
1629,1,2,4.1279,1.6486
1629,1,2,4.1387,1.6603
1629,1,2,4.1363,1.653
1629,1,2,4.1397,1.645
1629,1,2,4.13415,1.65335
1629,1,2,4.135,1.7114
1629,1,2,4.1372,1.7235
1629,1,2,4.11845,1.67765
1629,1,3,4.214,1.8724
1629,1,3,4.2235,1.881
1629,1,3,4.2223,1.8998
1629,1,3,4.2169,1.90665
1629,1,3,4.2228,1.883
1629,2,2,4.1242,2.6917
1629,2,2,4.1218,2.696
1629,2,2,4.1212,2.6645
1629,2,2,4.1289,2.68935
1629,2,2,4.1289,2.6879
1629,2,2,4.13885,2.7363
1629,2,2,4.13955,2.6685
1629,2,2,4.15445,2.6615
1629,2,2,4.1599,2.6657
1629,2,2,4.17615,2.6918
1629,2,2,4.18515,2.7105
1629,2,2,4.1309,2.6726
1629,2,2,4.1556,2.705
1629,2,2,4.1677,2.68905
1629,2,2,4.1821,2.7031
1629,2,2,4.1833,2.7088
1629,2,2,4.1858,2.6982
1629,2,2,4.1928,2.7808
1629,2,2,4.16755,2.6917
1629,2,2,4.1726,2.6807
1629,2,2,4.1842,2.6725
1629,2,2,4.18565,2.7016
1629,2,2,4.1903,2.6963
1629,2,2,4.18895,2.70605
1629,2,2,4.1907,2.7159
1629,2,2,4.1884,2.68685
1629,2,2,4.1895,2.731
1629,2,2,4.1639,2.7263
1629,2,2,4.1826,2.7191
1629,2,2,4.1991,2.74475
1629,2,2,4.1545,2.7043
1629,2,3,4.2168,2.9164
1629,2,3,4.2351,2.9664
1629,2,3,4.23765,2.91705
1629,2,3,4.2285,2.9453
1629,2,3,4.24655,2.962
1629,2,3,4.24635,2.92975
1629,2,3,4.2542,2.931
1629,2,3,4.2221,2.8606
1629,2,3,4.2554,2.9869
1629,2,3,4.23165,2.92735
1629,2,3,4.25,2.889
1629,3,2,4.13325,1.92265
1629,3,2,4.1181,1.9092
1629,3,2,4.1275,1.9576
1629,3,2,4.1298,1.99115
1629,3,2,4.12405,1.95675
1629,3,2,4.1303,1.9578
1629,3,2,4.1388,1.9918
1629,3,2,4.1309,1.9349
1629,3,2,4.1352,1.941
1629,3,2,4.1366,1.918
1629,3,2,4.15005,1.92185
1629,3,2,4.15255,1.89825
1629,3,2,4.1612,1.9238
1629,3,2,4.1638,1.9179
1629,3,2,4.1612,1.9025
1629,3,2,4.13645,1.93895
1629,3,2,4.1548,1.98635
1629,3,2,4.1622,1.9578
1629,3,2,4.1461,1.96
1629,3,2,4.1523,1.9506
1629,3,2,4.1556,1.9581
1629,3,2,4.13605,1.931
1629,3,2,4.1428,1.9184
1629,3,2,4.1596,1.9295
1629,3,2,4.175,1.9456
1629,3,2,4.1777,1.9615
1629,3,3,4.2168,2.1379
1629,3,3,4.23615,2.1557
1629,3,3,4.2268,2.1362
1629,3,3,4.2342,2.16415
1629,3,3,4.21915,2.17
1629,3,3,4.24475,2.15915
1630,1,2,4.1525,2.41
1630,1,2,4.1527,2.4254
1630,1,2,4.15355,2.37625
1630,1,2,4.1653,2.39625
1630,1,2,4.1725,2.3903
1630,1,2,4.1756,2.36485
1630,1,2,4.1752,2.3558
1630,1,2,4.17295,2.3662
1630,1,2,4.1802,2.3744
1630,1,2,4.1799,2.369
1630,1,2,4.1831,2.3657
1630,1,2,4.1823,2.3679
1630,1,2,4.18845,2.3645
1630,1,2,4.1898,2.3608
1630,1,2,4.1933,2.3688
1630,1,2,4.1602,2.37355
1630,1,2,4.1653,2.3783
1630,1,2,4.1899,2.38285
1630,1,3,4.26,2.7867
1630,1,3,4.2557,2.764
1630,1,3,4.2634,2.7427
1630,1,3,4.25935,2.737
1630,1,3,4.2626,2.7358
1630,1,3,4.2742,2.7547
1630,2,2,4.1601,3.3347
1630,2,2,4.1597,3.282
1630,2,2,4.1614,3.24375
1630,2,2,4.168,3.234
1630,2,2,4.1736,3.2171
1630,2,2,4.1798,3.2065
1630,2,2,4.176,3.2014
1630,2,3,4.2558,3.9098
1630,2,3,4.25615,3.81045
1630,2,3,4.2646,3.7512
1630,2,3,4.27685,3.77425
1630,3,2,4.162,4.691
1630,3,2,4.17085,4.6401
1630,3,2,4.15925,4.63255
1630,3,2,4.16135,4.6401
1630,3,2,4.1794,4.7641
1630,3,2,4.1571,4.543
1630,3,2,4.16185,4.5158
1630,3,2,4.1771,4.5423
1630,3,2,4.19325,4.53825
1630,3,2,4.2038,4.54685
1630,3,2,4.149,4.5528
1630,3,2,4.1682,4.5475
1630,3,2,4.1869,4.5656
1630,3,2,4.1702,4.5958
1630,3,2,4.1776,4.5561
1630,3,2,4.1883,4.5453
1630,3,2,4.1742,4.5636
1630,3,2,4.1886,4.5658
1630,3,2,4.1947,4.5484
1630,3,2,4.20335,4.585
1630,3,2,4.2051,4.5846
1630,3,2,4.175,4.6129
1630,3,2,4.1779,4.5787
1630,3,3,4.2377,5.231
1630,3,3,4.2414,5.1152
1630,3,3,4.26595,5.286
1630,3,3,4.2812,5.2473
1630,3,3,4.2535,5.2366
1630,3,3,4.27125,5.43385
1630,3,3,4.2755,5.27455
1630,3,3,4.2722,5.17615