,Baseline,ACh
0.00000000000000,0.00000000000000,0.00000000000000
0.04901960784314,0.00000000000000,0.00000000000000
0.09803921568627,0.00000000000000,0.00000000000000
0.14705882352941,0.00000000000000,0.00000000000000
0.19607843137255,0.00000000000000,0.00000000000000
0.24509803921569,0.00000000000000,0.00000000000000
0.29411764705882,0.00000000000000,0.00000000000000
0.34313725490196,0.00000000000000,0.00000000000000
0.39215686274510,2.78201220000000,3.14633422000000
0.44117647058824,1.98170732000000,3.23538142000000
0.49019607843137,2.59146341000000,3.23538142000000
0.53921568627451,2.89634146000000,2.96823983000000
0.58823529411765,1.82926829000000,2.89403384000000
0.63725490196078,2.40091463000000,3.11665183000000
0.68627450980392,2.55335366000000,3.36895221000000
0.73529411764706,2.51524390000000,2.96823983000000
0.78431372549020,2.62957317000000,3.23538142000000
0.83333333333333,3.20121951000000,4.33363016000000
0.88235294117647,4.91615854000000,6.18878005000000
0.93137254901961,9.90853659000000,9.81003265000000
0.98039215686275,16.42530490000000,15.85040070000000
1.02941176470588,29.15396340000000,24.97773820000000
1.07843137254902,41.61585370000000,36.56871480000000
1.12745098039216,53.35365850000000,49.89611160000000
1.17647058823529,68.44512200000000,62.46660730000000
1.22549019607843,80.48780490000000,75.83852780000000
1.27450980392157,88.49085370000000,85.98990800000000
1.32352941176471,93.59756100000000,91.97091120000000
1.37254901960784,96.76067070000000,96.61620660000000
1.42156862745098,99.27591460000000,99.24309880000000
1.47058823529412,100.00000000000000,99.22825760000000
1.51960784313725,97.94207320000000,98.32294450000000
1.56862745098039,99.00914630000000,99.34698720000000
1.61764705882353,98.39939020000000,100.00000000000000
1.66666666666667,98.09451220000000,97.20985460000000
1.71568627450980,95.54115850000000,96.60136540000000
1.76470588235294,91.88262200000000,95.87414660000000
1.81372549019608,88.56707320000000,94.99851590000000
1.86274509803922,90.05335370000000,94.90946870000000
1.91176470588235,90.47256100000000,95.11724550000000
1.96078431372549,86.58536590000000,90.27901450000000
2.00980392156863,85.67073170000000,87.90442270000000
2.05882352941176,84.98475610000000,86.56871480000000
2.10784313725490,82.12652440000000,86.85069750000000
2.15686274509804,78.01067070000000,83.27396850000000
2.20588235294118,76.10518290000000,79.74176310000000
2.25490196078431,72.52286590000000,79.65271590000000
2.30392156862745,75.11432930000000,77.79756600000000
2.35294117647059,72.56097560000000,76.09082810000000
2.40196078431373,69.89329270000000,76.00178090000000
2.45098039215686,67.41615850000000,74.29504300000000
2.50000000000000,67.11128050000000,74.60670820000000
2.54901960784314,65.70121950000000,73.15227070000000
2.59803921568627,68.52134150000000,71.68299200000000
2.64705882352941,62.80487800000000,70.15434850000000
2.69607843137255,65.51067070000000,70.31760170000000
2.74509803921569,60.17530490000000,69.14514690000000
2.79411764705882,61.81402440000000,66.81507870000000
2.84313725490196,61.28048780000000,67.15642620000000
2.89215686274510,58.23170730000000,65.80587710000000
2.94117647058824,59.67987800000000,63.77263280000000
2.99019607843137,56.13567070000000,62.03621250000000
3.03921568627451,58.49847560000000,62.83763730000000
3.08823529411765,56.74542680000000,59.54289110000000
3.13725490196078,54.03963410000000,60.03265060000000
3.18627450980392,52.97256100000000,60.67082220000000
3.23529411764706,52.17225610000000,57.37607600000000
3.28431372549020,48.09451220000000,58.40011870000000
3.33333333333333,50.60975610000000,55.81775010000000
3.38235294117647,47.21798780000000,55.86227370000000
3.43137254901961,48.70426830000000,55.66933810000000
3.48039215686275,49.23780490000000,54.67497770000000
3.52941176470588,48.01829270000000,54.08132980000000
3.57843137254902,45.65548780000000,55.00148410000000
3.62745098039216,47.40853660000000,53.11665180000000
3.67647058823529,46.60823170000000,51.52864350000000
3.72549019607843,45.61737800000000,52.37459190000000
3.77450980392157,45.69359760000000,51.29118430000000
3.82352941176471,43.78810980000000,52.65657470000000
3.87254901960784,42.75914630000000,49.59928760000000
3.92156862745098,43.86432930000000,48.17453250000000
3.97058823529412,42.33993900000000,47.07628380000000
4.01960784313726,40.20579270000000,46.43811220000000
4.06862745098039,41.00609760000000,44.21193230000000
4.11764705882353,40.05335370000000,44.47907390000000
4.16666666666667,36.92835370000000,42.31225880000000
4.21568627450980,35.89939020000000,44.13772630000000
4.26470588235294,36.16615850000000,42.44582960000000
4.31372549019608,36.08993900000000,41.13980410000000
4.36274509803922,34.71798780000000,40.87266250000000
4.41176470588235,35.86128050000000,41.08043930000000
4.46078431372549,33.95579270000000,40.84298010000000
4.50980392156863,33.68902440000000,39.77441380000000
4.55882352941176,33.15548780000000,39.01751260000000
4.60784313725490,32.62195120000000,38.31997630000000
4.65686274509804,33.04115850000000,38.36449990000000
4.70588235294118,31.25000000000000,37.47402790000000
4.75490196078431,32.16463410000000,37.31077470000000
4.80392156862745,30.86890240000000,37.47402790000000
4.85294117647059,31.40243900000000,36.77649150000000
4.90196078431373,29.64939020000000,34.65420010000000
4.95098039215686,28.92530490000000,36.21252600000000
5.00000000000000,27.70579270000000,34.34253490000000
5.04901960784314,29.45884150000000,33.31849210000000
5.09803921568627,28.04878050000000,31.96794300000000
5.14705882352941,26.21951220000000,31.19620070000000
5.19607843137255,25.99085370000000,30.48382310000000
5.24509803921569,25.57164630000000,29.68239830000000
5.29411764705882,26.02896340000000,31.34461260000000
5.34313725490196,24.58079270000000,29.22232120000000
5.39215686274510,23.24695120000000,27.93113680000000
5.44117647058824,25.03810980000000,28.00534280000000
5.49019607843137,24.77134150000000,29.74176310000000
5.53921568627451,24.88567070000000,28.46542000000000
5.58823529411765,23.55182930000000,29.75660430000000
5.63725490196079,23.05640240000000,27.67883640000000
5.68627450980392,23.24695120000000,26.41733450000000
5.73529411764706,21.37957320000000,27.67883640000000
5.78431372549020,22.52286590000000,26.34312850000000
5.83333333333333,21.26524390000000,26.09082810000000
5.88235294117647,21.26524390000000,25.31908580000000
5.93137254901961,20.08384150000000,24.94805580000000
5.98039215686275,19.47408540000000,24.08726630000000
6.02941176470588,19.89329270000000,23.09290590000000
6.07843137254902,18.97865850000000,23.38972990000000
6.12745098039216,17.03506100000000,23.13742950000000
6.17647058823529,17.18750000000000,21.69783320000000
6.22549019607843,16.61585370000000,23.37488870000000
6.27450980392157,17.64481710000000,23.24131790000000
6.32352941176471,18.97865850000000,22.64766990000000
6.37254901960784,19.74085370000000,22.46957550000000
6.42156862745098,18.06402440000000,21.32680320000000
6.47058823529412,16.65396340000000,21.93529240000000
6.51960784313726,16.46341460000000,21.50489760000000
6.56862745098039,17.14939020000000,19.72395370000000
6.61764705882353,16.95884150000000,20.62926680000000
6.66666666666667,16.19664630000000,20.88156720000000
6.71568627450980,16.27286590000000,19.35292370000000
6.76470588235294,15.47256100000000,18.90768770000000
6.81372549019608,15.70121950000000,18.19531020000000
6.86274509803922,14.13871950000000,16.82991990000000
6.91176470588235,13.71951220000000,17.37904420000000
6.96078431372549,14.51981710000000,16.60730190000000
7.00980392156863,14.63414630000000,17.51261500000000
7.05882352941176,14.44359760000000,16.50341350000000
7.10784313725490,14.55792680000000,17.09706140000000
7.15686274509804,13.94817070000000,16.36984270000000
7.20588235294118,12.19512200000000,17.83912140000000
7.25490196078431,13.56707320000000,16.60730190000000
7.30392156862745,12.46189020000000,16.60730190000000
7.35294117647059,13.64329270000000,16.07301870000000
7.40196078431373,10.78506100000000,15.22707030000000
7.45098039215686,12.00457320000000,15.12318200000000
7.50000000000000,12.42378050000000,15.70198870000000
7.54901960784314,13.52896340000000,14.67794600000000
7.59803921568627,11.01371950000000,14.55921640000000
7.64705882352941,11.85213410000000,13.44612640000000
7.69607843137255,11.50914630000000,13.83199760000000
7.74509803921569,11.50914630000000,13.90620360000000
7.79411764705882,10.25152440000000,13.04541410000000
7.84313725490196,10.55640240000000,13.98040960000000
7.89215686274510,11.81402440000000,13.29771450000000
7.94117647058824,11.39481710000000,12.31819530000000
7.99019607843137,10.67073170000000,12.22914810000000
8.03921568627451,11.50914630000000,13.43128520000000
8.08823529411765,10.32774390000000,12.60017810000000
8.13725490196078,9.71798780000000,13.50549120000000
8.18627450980392,10.13719510000000,12.58533690000000
8.23529411764706,10.74695120000000,11.42772340000000
8.28431372549020,10.51829270000000,12.19946570000000
8.33333333333333,8.68902439000000,10.93796380000000
8.38235294117647,9.83231707000000,10.99732860000000
8.43137254901961,7.69817073000000,11.19026420000000
8.48039215686275,8.30792683000000,10.73018700000000
8.52941176470588,9.03201220000000,10.62629860000000
8.57843137254902,9.94664634000000,10.87859900000000
8.62745098039216,7.69817073000000,10.46304540000000
8.67647058823529,8.30792683000000,10.38883940000000
8.72549019607843,8.04115854000000,9.88423865000000
8.77450980392157,7.31707317000000,9.79519145000000
8.82352941176471,7.85060976000000,10.27010980000000
8.87254901960784,7.66006098000000,9.51320867000000
8.92156862745098,7.31707317000000,10.09201540000000
8.97058823529412,8.65091463000000,9.32027308000000
9.01960784313726,8.00304878000000,9.46868507000000
9.06862745098039,7.43140244000000,8.69694271000000
9.11764705882353,7.05030488000000,9.89907985000000
9.16666666666667,6.70731707000000,8.75630751000000
9.21568627450980,7.01219512000000,8.56337192000000
9.26470588235294,7.35518293000000,8.40011873000000
9.31372549019608,7.12652439000000,9.09765509000000
9.36274509803922,6.36432927000000,8.26654794000000
9.41176470588235,6.40243902000000,8.31107153000000
9.46078431372549,6.47865854000000,8.02908875000000
9.50980392156863,6.25000000000000,8.77114871000000
9.55882352941176,6.36432927000000,8.17750074000000
9.60784313725490,5.18292683000000,7.73226477000000
9.65686274509804,6.28810976000000,7.61353517000000
9.70588235294118,5.75457317000000,8.01424755000000
9.75490196078432,6.13567073000000,7.86583556000000
9.80392156862745,6.70731707000000,7.74710597000000
9.85294117647059,5.83079268000000,7.01988721000000
9.90196078431373,5.18292683000000,7.25734639000000
9.95098039215686,4.91615854000000,6.91599881000000
10.00000000000000,5.44969512000000,6.67853963000000
10.04901960784310,5.03048780000000,7.06441080000000
10.09803921568630,5.52591463000000,6.66369843000000
10.14705882352940,5.22103659000000,7.19798160000000
10.19607843137250,4.87804878000000,6.38171564000000
10.24509803921570,4.68750000000000,6.94568121000000
10.29411764705880,5.83079268000000,6.55981003000000
10.34313725490200,4.23018293000000,6.21846245000000
10.39215686274510,5.03048780000000,5.83259127000000
10.44117647058820,4.26829268000000,5.71386168000000
10.49019607843140,4.23018293000000,5.46156129000000
10.53921568627450,5.03048780000000,5.81775007000000
10.58823529411760,4.42073171000000,5.93647967000000
10.63725490196080,5.14481707000000,6.04036806000000
10.68627450980390,4.38262195000000,5.59513209000000
10.73529411764710,4.07774390000000,5.77322648000000
10.78431372549020,3.88719512000000,5.92163847000000
10.83333333333330,4.30640244000000,5.28346690000000
10.88235294117650,5.22103659000000,5.22410211000000
10.93137254901960,4.19207317000000,5.43187890000000
10.98039215686270,4.53506098000000,4.88275453000000
11.02941176470590,3.73475610000000,5.10537251000000
11.07843137254900,3.81097561000000,5.10537251000000
11.12745098039220,3.46798780000000,5.12021371000000
11.17647058823530,4.49695122000000,4.64529534000000
11.22549019607840,3.92530488000000,4.73434253000000
11.27450980392160,3.54420732000000,4.92727812000000
11.32352941176470,4.07774390000000,4.67497774000000
11.37254901960780,3.84908537000000,4.40783615000000
11.42156862745100,3.16310976000000,4.63045414000000
11.47058823529410,3.46798780000000,4.39299495000000
11.51960784313730,3.27743902000000,4.39299495000000
11.56862745098040,3.92530488000000,4.24458296000000
11.61764705882350,3.50609756000000,4.55624814000000
11.66666666666670,3.84908537000000,4.36331256000000
11.71568627450980,3.58231707000000,4.20005936000000
11.76470588235290,4.26829268000000,5.68417928000000
11.81372549019610,6.28810976000000,7.28702879000000
11.86274509803920,0.00000000000000,0.02968240000000
11.91176470588240,0.00000000000000,0.00000000000000
11.96078431372550,0.00000000000000,0.00000000000000
12.00980392156860,0.00000000000000,0.00000000000000
12.05882352941180,0.00000000000000,0.00000000000000
12.10784313725490,0.00000000000000,0.00000000000000
12.15686274509800,0.00000000000000,0.00000000000000
12.20588235294120,0.00000000000000,0.00000000000000
12.25490196078430,0.00000000000000,0.00000000000000
12.30392156862750,0.00000000000000,0.00000000000000
12.35294117647060,0.00000000000000,0.00000000000000
12.40196078431370,0.00000000000000,0.00000000000000
12.45098039215690,0.00000000000000,0.00000000000000
12.50000000000000,0.00000000000000,0.00000000000000