0.00000000000000,4.23601239587360
0.30000000000000,4.23782210962170
0.41666666666666,4.24001807978661
0.53333333333333,4.24003099520055
0.66666666666666,4.24755553978291
0.78333333333333,4.24156054083240
0.89999999999999,4.24539233476170
1.01666666666667,4.24518669984248
1.13333333333333,4.24772308173403
1.25000000000000,4.24680959053889
1.36666666666666,4.24674765539305
1.63333333333333,4.24357507763912
1.73333333333333,4.24260979394513
1.84999999999999,4.24847837573771
1.96666666666667,4.24728162058596
2.08333333333333,4.24496591812008
2.19999999999999,4.24780283844850
2.31666666666666,4.24431190707013
2.43333333333332,4.24695670794681
2.55000000000000,4.24739071882328
2.66666666666666,4.24987930186206
2.78333333333333,4.24641540964375
2.89999999999999,4.24531800729425
3.01666666666667,4.24639994123015
3.13333333333333,4.24747349226356
3.25000000000000,4.24531781204760
3.36666666666666,4.24229401763686
3.48333333333333,4.24648145172300
3.59999999999999,4.24645202595028
3.69999999999999,4.24630011196760
4.00000000000000,4.24270773887274
4.11666666666666,4.24413160616190
4.23333333333333,4.25183394040247
4.34999999999999,4.24966129266180
4.46666666666667,4.25006024583619
4.58333333333333,4.24582688734734
4.69999999999999,4.24604654726843
4.81666666666666,4.24577873427447
4.93333333333332,4.24202481818270
5.05000000000000,4.24022096331534
5.16666666666666,4.24335898528482
5.28333333333333,4.24052888205989
5.39999999999999,4.23949570805342
5.51666666666667,4.24100808785657
5.63333333333333,4.23756503408951
5.75000000000000,4.23431627128471
5.86666666666666,4.23513629810307
5.98333333333333,4.23518538016669
6.09999999999999,4.23368269502838
6.41666666666666,4.23719633251839
6.53333333333333,4.23783004316999
6.64999999999999,4.23875831325330
6.76666666666667,4.24119593103670
6.88333333333333,4.24019033563799
7.00000000000000,4.23376835767806
7.11666666666666,4.23429996266349
7.23333333333333,4.23415346351270
7.34999999999999,4.23583343636821
7.61666666666666,4.23810063174300
7.73333333333333,4.24108530547085
7.84999999999999,4.23385526162937
7.96666666666667,4.23813301729047
8.08333333333333,4.23509105205242
8.19999999999999,4.23500173873420
8.31666666666666,4.23156501196366
8.43333333333332,4.23320345095745
8.55000000000000,4.23395809844122
8.66666666666666,4.23327139893117
8.78333333333333,4.23524705394158
8.89999999999999,4.23396119248957
9.01666666666667,4.23550367191182
9.13333333333333,4.23238368591706
9.25000000000000,4.22894774678901
9.36666666666666,4.23321393468005
9.48333333333333,4.23273109503417
9.59999999999999,4.23340242590840
9.71666666666667,4.23506866342977
9.83333333333333,4.24050907189713
10.11666666666670,4.23719036242061
10.56666666666670,4.24165828050442
10.68333333333330,4.24295093837202
10.80000000000000,4.24245644322336
10.91666666666670,4.24421189500763
11.23333333333330,4.24038222243348
11.35000000000000,4.24081471848417
11.46666666666670,4.23602043931418
11.58333333333330,4.23861104008222
11.70000000000000,4.23966218535607
11.81666666666670,4.23947467260008
11.93333333333330,4.23900808155619
12.05000000000000,4.23885142900009
12.15000000000000,4.23771557585415
12.28333333333330,4.24188806504956
12.38333333333330,4.23705471525034
12.66666666666670,4.23737688198570
12.76666666666670,4.23554564498510
12.88333333333330,4.23805470876012
13.01666666666670,4.23914223516842
13.13333333333330,4.24051207089026
13.23333333333330,4.23557354704176
13.35000000000000,4.24617293539285
13.46666666666670,4.23784833169030
13.58333333333330,4.23915594794724
13.70000000000000,4.23790517202080
13.81666666666670,4.24128610097334
13.93333333333330,4.23780462974910
14.05000000000000,4.24026937419021
14.16666666666670,4.24083665114323
14.28333333333330,4.23880721469397
14.40000000000000,4.23342358683262
14.51666666666670,4.23551385929011
14.63333333333330,4.23647474843236
14.75000000000000,4.23991692456815
14.86666666666670,4.23629219453641
14.98333333333330,4.23288229700304
15.08333333333330,4.23800633689743
15.21666666666670,4.23580553833400
15.33333333333330,4.23870437550908
15.43333333333330,4.23820257797258
15.55000000000000,4.23998866954376
15.66666666666670,4.23593779681420
15.78333333333330,4.23635992998337
15.90000000000000,4.23529322495075
16.01666666666670,4.23715840795503
16.13333333333330,4.23663366267080
16.25000000000000,4.23390444519298
16.36666666666670,4.23832746129364
16.48333333333330,4.23701328661439
16.60000000000000,4.23657691725771
16.70000000000000,4.23485879844532
16.81666666666670,4.23677576187161
16.93333333333330,4.23341016071342
17.05000000000000,4.23437691086459
17.16666666666670,4.23704241612285
17.28333333333330,4.23362229295902
17.40000000000000,4.23518516308553
17.51666666666670,4.23510707331099
17.63333333333330,4.23426731499191
17.75000000000000,4.23475155655008
17.86666666666670,4.23271886862883
17.98333333333330,4.23311637838970
18.10000000000000,4.23541463430685
18.36666666666670,4.23649099700709
18.48333333333330,4.23553221177184
18.60000000000000,4.23548341802088
18.71666666666670,4.23667377143834
18.83333333333330,4.23944884616547
18.95000000000000,4.23724958713257
19.06666666666670,4.23632805566358
19.18333333333330,4.23948972220434
19.30000000000000,4.23688294142708
19.41666666666670,4.23663077013833
19.53333333333330,4.23876561178528
19.65000000000000,4.23999537387687
19.76666666666670,4.24166113825330
19.88333333333330,4.24141008163214
20.00000000000000,4.23730718296369
20.11666666666670,4.24353476773564
20.23333333333330,4.24199738888991
20.35000000000000,4.24082430250218
20.46666666666670,4.23865009078140
20.58333333333330,4.24608169735094
20.68333333333330,4.23916599306608
20.81666666666670,4.24403340879301
20.93333333333330,4.24234249738347
21.03333333333330,4.23921076681418
21.15000000000000,4.24075666767934
21.26666666666670,4.24000140968536
21.38333333333330,4.23828068252210
21.50000000000000,4.24246909622993
21.61666666666670,4.24173267175698
21.85000000000000,4.24112517262164
21.96666666666670,4.23541888239517
22.08333333333330,4.24128896025180
22.20000000000000,4.24100884928115
22.31666666666670,4.23868290820213
22.43333333333330,4.23942730260740
22.55000000000000,4.24177546125619
22.66666666666670,4.23954874463777
22.78333333333330,4.24302719615474
22.90000000000000,4.24083746036864
23.01666666666670,4.24103765807401
23.13333333333330,4.23917575530036
23.25000000000000,4.23752310825001
23.36666666666670,4.23916919906382
23.48333333333330,4.23627877543017
23.60000000000000,4.23983095007111
23.86666666666670,4.23689005337757
23.98333333333330,4.23885806002315
24.10000000000000,4.23985685567088
24.21666666666670,4.23676631229098
24.33333333333330,4.24027749960424
24.45000000000000,4.24200302508892
24.56666666666670,4.23913093297838
24.68333333333330,4.23955009267173
24.80000000000000,4.23600764745735
24.91666666666670,4.23184965205008
25.03333333333330,4.23809369683733
25.15000000000000,4.23684437189390
25.26666666666670,4.23739070054892
25.38333333333330,4.23755619951300
25.50000000000000,4.23535137502484
25.61666666666670,4.23926089515223
25.73333333333330,4.24387641399611
25.85000000000000,4.23750576586173
25.96666666666670,4.23770009031151
26.08333333333330,4.23216692229992
26.20000000000000,4.23645201971467
26.31666666666670,4.23777236931691
26.43333333333330,4.23637868135782
26.55000000000000,4.23528007259944
26.68333333333330,4.23695801703673
26.80000000000000,4.23575946922680
26.91666666666670,4.23421545461657
27.03333333333330,4.24200970092724
27.15000000000000,4.24047407236232
27.26666666666670,4.23984253125404
27.38333333333330,4.24244290749273
27.50000000000000,4.24333477377234
27.61666666666670,4.24677023642694
27.73333333333330,4.24455894378824
27.85000000000000,4.24409484256615
27.96666666666670,4.24715350280154
28.08333333333330,4.25564753792476
28.20000000000000,4.25311708341675
28.33333333333330,4.25408023705680
28.45000000000000,4.25639451296809
28.56666666666670,4.25809693965136
28.68333333333330,4.25164779210409
28.80000000000000,4.25699484372457
28.91666666666670,4.25830832416207
29.03333333333330,4.25506869183669
29.16666666666670,4.25974281699619
29.28333333333330,4.25898235571433
29.40000000000000,4.26234092834344
29.51666666666670,4.25579984030345
29.63333333333330,4.25879455820839
29.75000000000000,4.26284058935943
29.86666666666670,4.26064597438624
29.98333333333330,4.26021070505697
30.10000000000000,4.26565629102597
30.21666666666670,4.26229700574241
30.33333333333330,4.26182730529744
30.46666666666670,4.26769321739821
30.58333333333330,4.26679070526607
30.70000000000000,4.26333069959560
30.81666666666670,4.26361283144411
31.05000000000000,4.26207233743365
31.16666666666670,4.26310761316215
31.28333333333330,4.26291026471154
31.41666666666670,4.26177697031795
31.53333333333330,4.26511372993928
31.65000000000000,4.26109339350211
31.76666666666670,4.26394869912116
31.88333333333330,4.26358610299046
32.00000000000000,4.26445295372821
32.11666666666670,4.26850990645772
32.23333333333330,4.26280942655843
32.35000000000000,4.26177795768738
32.46666666666670,4.25992330522405
32.58333333333330,4.26092663723934
32.70000000000000,4.26371510991762
32.83333333333330,4.26239770210322
32.95000000000000,4.26085801770484
33.06666666666670,4.26293158560972
33.18333333333330,4.26279767879983
33.30000000000000,4.26398189404361
33.41666666666670,4.26215512593277
33.53333333333330,4.26373763461796
33.66666666666670,4.26539126590063
33.78333333333330,4.26468208059970
33.90000000000000,4.26482274241190
34.01666666666670,4.25825656663230
34.13333333333330,4.26419238813529
34.25000000000000,4.25990255170635
34.36666666666670,4.26061288829672
34.48333333333330,4.26095582072605
34.60000000000000,4.25692701478739
34.71666666666670,4.26034122039182
34.83333333333330,4.26314225993850
34.95000000000000,4.25879713619580
35.08333333333330,4.26034897956267
35.20000000000000,4.25992964367279
35.31666666666670,4.26171769388195
35.43333333333330,4.26238562959656
35.55000000000000,4.25811418457673
35.68333333333330,4.26191132749793
35.80000000000000,4.26053685998220
35.91666666666670,4.25853810845216
36.03333333333330,4.25901853254480
36.15000000000000,4.26065767598817
36.26666666666670,4.26458366404619
36.38333333333330,4.26097003544099
36.50000000000000,4.26034593481293
36.61666666666670,4.25925148270927
36.75000000000000,4.26501173919421
36.86666666666670,4.26860098532902
36.98333333333330,4.26838004091276
37.10000000000000,4.26476875689802
37.21666666666670,4.27014795107047
37.33333333333330,4.27693506958840
37.45000000000000,4.27502669959199
37.56666666666670,4.27738775745587
37.68333333333330,4.27865980841817
37.81666666666670,4.28658993466976
37.93333333333330,4.28477392499735
38.05000000000000,4.28932996281578
38.16666666666670,4.28888117501620
38.28333333333330,4.28642508661057
38.41666666666670,4.28929611324337
38.53333333333330,4.28966501933854
38.65000000000000,4.29404773197847
38.76666666666670,4.29136036608012
38.88333333333330,4.29561656343507
39.01666666666670,4.29576406548898
39.13333333333330,4.29625017630870
39.25000000000000,4.29424188553319
39.36666666666670,4.30178188927132
39.48333333333330,4.30180914944976
39.61666666666670,4.29736232010251
39.73333333333330,4.29592832211283
39.85000000000000,4.29926078532495
39.96666666666670,4.30392319608043
40.08333333333330,4.30330893377959
40.21666666666670,4.30010180757389
40.33333333333330,4.30167535581371
40.45000000000000,4.29962261396046
40.56666666666670,4.30301344986991
40.68333333333330,4.29779082018782
40.81666666666670,4.30081882212168
40.93333333333330,4.30150991280923
41.05000000000000,4.30212891198454
41.16666666666670,4.30122789831552
41.30000000000000,4.30150165860132
41.41666666666670,4.29892996210059
41.53333333333330,4.30028068342657
41.66666666666670,4.30195056549947
41.78333333333330,4.30196253242955
41.90000000000000,4.30625254153668
42.03333333333330,4.30170561907034
42.15000000000000,4.29991378553347
42.26666666666670,4.30105083430798
42.38333333333330,4.30093538759427
42.51666666666670,4.29820720232602
42.63333333333330,4.29991203813198
42.75000000000000,4.29859103670923
42.86666666666670,4.30085485130231
43.00000000000000,4.30049321722174
43.11666666666670,4.30168690259794
43.23333333333330,4.29896784475033
43.35000000000000,4.30056529990013
43.46666666666670,4.29713841231797
43.60000000000000,4.30089798271754
43.71666666666670,4.29871289598137
43.83333333333330,4.29734828603216
43.96666666666670,4.29959900679263
44.08333333333330,4.29815049890859
44.20000000000000,4.29672756268237
44.31666666666670,4.29669685422479
44.43333333333330,4.29517032842691
44.56666666666670,4.29856080621308
44.68333333333330,4.29826738659083
44.80000000000000,4.29754003330556
44.91666666666670,4.29620078283868
45.03333333333330,4.29470595292613
45.30000000000000,4.29999413505361
45.43333333333330,4.29514833174223
45.55000000000000,4.29590585127953
45.66666666666670,4.29448388908847
45.78333333333330,4.29756711036347
45.90000000000000,4.29384855525364
46.03333333333330,4.29243043638400
46.15000000000000,4.29315025263083
46.26666666666670,4.29527511746946
46.38333333333330,4.29681026970832
46.50000000000000,4.29358244392286
46.63333333333330,4.29597951707509
46.75000000000000,4.29246842559004
46.86666666666670,4.29417975216016
47.00000000000000,4.29350722871830
47.11666666666670,4.29574155491339
47.23333333333330,4.29135067130618
47.35000000000000,4.29112454219777
47.46666666666670,4.29811157311771
47.58333333333330,4.29542127941985
47.71666666666670,4.29764460275573
47.83333333333330,4.30579160934621
47.95000000000000,4.31142637934528
48.06666666666670,4.31552302824877
48.20000000000000,4.31782124791620
48.31666666666670,4.31909682004371
48.43333333333330,4.32608633438074
48.55000000000000,4.32946457383076
48.68333333333330,4.33180753258479
48.80000000000000,4.33281202180064
48.91666666666670,4.33098050163161
49.05000000000000,4.33598220868354
49.16666666666670,4.33629788921823
49.30000000000000,4.33626064585413
49.41666666666670,4.33963824805047
49.53333333333330,4.33931180011851
49.66666666666670,4.34323653428243
49.78333333333330,4.34255003428574
49.90000000000000,4.34368795738034
50.03333333333330,4.34467387906118
50.15000000000000,4.34748421267354
50.28333333333330,4.34672140334877
50.40000000000000,4.34603307095531
50.53333333333330,4.34651350327379
50.65000000000000,4.34564273209223
50.76666666666670,4.34626384595195
50.90000000000000,4.34581713666207
51.01666666666670,4.34615189567800
51.13333333333330,4.34353779337229
51.26666666666670,4.34479533933040
51.38333333333330,4.34650945807083
51.51666666666670,4.34765863447979
51.63333333333330,4.34796443489892
51.76666666666670,4.35028553672393
51.88333333333330,4.34734446647563
52.00000000000000,4.34907308304052
52.13333333333330,4.34771060805915
52.25000000000000,4.35093844474677
52.38333333333330,4.34806322150590
52.50000000000000,4.34758237861386
52.61666666666670,4.35070235666894
52.75000000000000,4.34848641735869
52.86666666666670,4.34984725807427
53.00000000000000,4.34872855473655
53.11666666666670,4.34905622225514
53.23333333333330,4.34932714706779
53.36666666666670,4.34538449832492
53.48333333333330,4.34957761315479
53.61666666666670,4.34957113818034
53.73333333333330,4.35060392606876
53.86666666666670,4.34821759501642
53.98333333333330,4.34783436958918
54.10000000000000,4.34692193118876
54.23333333333330,4.34749966503482
54.35000000000000,4.34629081727898
54.48333333333330,4.34783476325792
54.60000000000000,4.34850359553115
54.73333333333330,4.34514073166496
54.85000000000000,4.34671292362284
54.96666666666670,4.34638621597413
55.10000000000000,4.34445123303580
55.21666666666670,4.34444020642382
55.33333333333330,4.34579055484563
55.46666666666670,4.34308906752968
55.58333333333330,4.34488404969228
55.71666666666670,4.34486911137416
55.83333333333330,4.34048593278105
55.96666666666670,4.34355440777976
56.08333333333330,4.34588160872357
56.20000000000000,4.34321127729736
56.33333333333330,4.34288926313619
56.45000000000000,4.34127354160525
56.58333333333330,4.34353392322419
56.70000000000000,4.34455096021254
56.83333333333330,4.34751606799945
56.95000000000000,4.34193849718751
57.08333333333330,4.34517044297876
57.20000000000000,4.34207901577136
57.33333333333330,4.34410339883055
57.45000000000000,4.34371282270849
57.58333333333330,4.34538856107006
57.70000000000000,4.34100231240059
57.83333333333330,4.34262696363646
57.95000000000000,4.34398839456523
58.08333333333330,4.33977623854462
58.20000000000000,4.33863363493584
58.33333333333330,4.34374336990133
58.45000000000000,4.34493499342600
58.58333333333330,4.35097500380044
58.70000000000000,4.35570911730962
58.81666666666670,4.35913689571807
58.95000000000000,4.36603818300093
59.06666666666670,4.36788779774314
59.20000000000000,4.37039980587462
59.31666666666670,4.37295374778071
59.45000000000000,4.37721019654369
59.58333333333330,4.37942645944360
59.70000000000000,4.37826672471916
59.83333333333330,4.38100788531102
59.95000000000000,4.38362558147054
60.08333333333330,4.38347327185484
60.21666666666670,4.38357375563091
60.33333333333330,4.38737004143616
60.46666666666670,4.38994974465933
60.58333333333330,4.38967169807652
60.71666666666670,4.38879917572017
60.85000000000000,4.38851935686370
60.96666666666670,4.38675183324077
61.10000000000000,4.38794463525457
61.21666666666670,4.38744657646810
61.35000000000000,4.38948792250743
61.46666666666670,4.39183113244578
61.60000000000000,4.38857317910930
61.71666666666670,4.39205282805416
61.85000000000000,4.39348599353145
61.96666666666670,4.39009119613215
62.10000000000000,4.39352230010181
62.21666666666670,4.38893729355887
62.35000000000000,4.39214766179323
62.48333333333330,4.39244846767902
62.60000000000000,4.39090042648173
62.73333333333330,4.39158323465727
62.86666666666670,4.39315573667727
62.98333333333330,4.39356575919021
63.11666666666670,4.38800666477485
63.23333333333330,4.39171360604415
63.36666666666670,4.39150512037018
63.50000000000000,4.39348045795395
63.61666666666670,4.39349656902792
63.75000000000000,4.39455146637359
63.88333333333330,4.38958932511334
64.00000000000000,4.39337636665320
64.13333333333330,4.38953725216867
64.25000000000000,4.39106130682727
64.38333333333330,4.39032166984159
64.51666666666670,4.39250356454951
64.63333333333330,4.39132376129333
64.76666666666670,4.39034736056078
64.88333333333330,4.39193158184388
65.01666666666670,4.39067704729339
65.15000000000000,4.39268790706374
65.26666666666670,4.39087757337718
65.40000000000000,4.39419694576156
65.51666666666670,4.39057384895186
65.65000000000000,4.38887317035220
65.76666666666670,4.38958603381161
65.90000000000000,4.39225712244018
66.03333333333330,4.39244975866537
66.16666666666670,4.39061830302651
66.28333333333330,4.39449509764201
66.41666666666670,4.39480508400470
66.55000000000000,4.39259932604450
66.68333333333330,4.39038117286546
66.80000000000000,4.39207020522192
66.93333333333330,4.39425632173329
67.06666666666670,4.39216266958268
67.18333333333330,4.39283017476857
67.31666666666670,4.39579975674899
67.45000000000000,4.39564295074488
67.56666666666670,4.39145399772624
67.70000000000000,4.39347954552324
67.83333333333330,4.39672106399353
67.96666666666670,4.39229226661850
68.10000000000000,4.39138094672612
68.21666666666670,4.39035954491043
68.35000000000000,4.39514006339314
68.48333333333330,4.39293814189506
68.61666666666670,4.39189054767079
68.73333333333330,4.39163479104836
68.86666666666670,4.39275601487964
69.00000000000000,4.39389953481939
69.11666666666670,4.39064922344114
69.25000000000000,4.39602500227524
69.38333333333330,4.39172091143926
69.51666666666670,4.39462408036334
69.65000000000000,4.39912571267074
69.78333333333330,4.40050759259815
69.91666666666670,4.40278038948250
70.05000000000000,4.40557528530914
70.16666666666670,4.40636416762002
70.30000000000000,4.40644221261315
70.43333333333330,4.40718833723554
70.55000000000000,4.41291354743272
70.68333333333330,4.41163817549745
70.81666666666670,4.41381617828950
70.95000000000000,4.41310616421271
71.08333333333330,4.41219954393006
71.20000000000000,4.41271286810385
71.33333333333330,4.41521723907660
71.46666666666670,4.41230812261339
71.60000000000000,4.41044965358119
71.71666666666670,4.41113750550258
71.85000000000000,4.41409706364317
71.98333333333330,4.41533556155765
72.11666666666670,4.41266880643195
72.23333333333330,4.41261741157822
72.36666666666670,4.41287968443464
72.50000000000000,4.41556168252234
72.61666666666670,4.41633121884534
72.75000000000000,4.41369744958897
72.88333333333330,4.41323020513995
73.01666666666670,4.41319115174877
73.15000000000000,4.41426556297640
73.28333333333330,4.41531455290383
73.41666666666670,4.41122144703111
73.55000000000000,4.41461059411239
73.66666666666670,4.41393879524926
73.80000000000000,4.41145056694082
73.93333333333330,4.41468484763803
74.06666666666670,4.41557962844817
74.20000000000000,4.41474450823590
74.33333333333330,4.41595739813057
74.46666666666670,4.41205035539531
74.60000000000000,4.41425110005991
74.71666666666670,4.41514188183320
74.85000000000000,4.41529182685840
74.98333333333330,4.41479507253965
75.11666666666670,4.41037649417043
75.25000000000000,4.41279065324609
75.38333333333330,4.41630594878871
75.51666666666670,4.41683235713546
75.65000000000000,4.41295811270430
75.78333333333330,4.41397843181258
75.91666666666670,4.41273152459746
76.05000000000000,4.41570709147932
76.18333333333330,4.41620024893338
76.30000000000000,4.41521994548468
76.43333333333330,4.41470270254470
76.56666666666670,4.41356753490673
76.70000000000000,4.41318971314767
76.83333333333330,4.41528707335862
76.96666666666670,4.41382458096377
77.10000000000000,4.41450126851103
77.23333333333330,4.41191222086561
77.36666666666670,4.41329814398372
77.48333333333330,4.41332429454907
77.61666666666670,4.41357167132431
77.75000000000000,4.41516164479174
77.88333333333330,4.41401076979249
78.01666666666670,4.41495573585836
78.15000000000000,4.41409889371210
78.28333333333330,4.41630766957381
78.41666666666670,4.41545267646633
78.55000000000000,4.41462416591904
78.68333333333330,4.40964591955107
78.81666666666670,4.41068909432786
79.10000000000000,4.41135717717989
79.23333333333330,4.41601799758055
79.36666666666670,4.40951241811509
79.50000000000000,4.41257436264049
79.65000000000000,4.41419054293676
79.78333333333330,4.41481444265858
79.91666666666670,4.41483233296084
80.05000000000000,4.41172548917833
80.18333333333330,4.41404822725562
80.31666666666670,4.41856915531599
80.45000000000000,4.41957121560796
80.58333333333330,4.42491019631888
80.71666666666670,4.42089069681109
80.85000000000000,4.42516749460298
81.00000000000000,4.42697149749379
81.11666666666670,4.42898647264218
81.26666666666670,4.42624601083757
81.40000000000000,4.42977701676956
81.53333333333330,4.43069482237977
81.66666666666670,4.42920159361841
81.80000000000000,4.42827559148137
81.93333333333330,4.43097451513921
82.06666666666670,4.42968031638975
82.20000000000000,4.43165798400091
82.33333333333330,4.42864780645362
82.46666666666670,4.43038324293783
82.60000000000000,4.43079560555027
82.73333333333330,4.43155379306112
82.86666666666670,4.43204958063920
83.00000000000000,4.43147212630176
83.15000000000000,4.42892334113846
83.26666666666670,4.43495873492289
83.40000000000000,4.43158005196558
83.55000000000000,4.43069912151683
83.66666666666670,4.43273388510570
83.80000000000000,4.43076240397625
83.93333333333330,4.43305088457267
84.06666666666670,4.43047347567962
84.20000000000000,4.42705992476320
84.33333333333330,4.43032375881097
84.46666666666670,4.42982445900574
84.60000000000000,4.43063570866722
84.75000000000000,4.43145187714648
84.88333333333330,4.43186582089042
85.01666666666670,4.43142445574525
85.15000000000000,4.43146158687590
85.28333333333330,4.43173401237034
85.41666666666670,4.43223323364360
85.56666666666670,4.43240348255392
85.70000000000000,4.43096761841002
85.83333333333330,4.43316405843695
85.96666666666670,4.43242765517516
86.11666666666670,4.43247161055200
86.25000000000000,4.42952349615220
86.38333333333330,4.43367887402101
86.51666666666670,4.43392062243347
86.66666666666670,4.43042010732729
86.80000000000000,4.43032796680622
86.93333333333330,4.43097402228946
87.06666666666670,4.43221102447733
87.20000000000000,4.43532379634884
87.35000000000000,4.42938364994466
87.48333333333330,4.43266620123519
87.63333333333330,4.43186449539370
87.76666666666670,4.43094634656684
87.90000000000000,4.43339891050132
88.03333333333330,4.43187581216575
88.18333333333330,4.43002360508445
88.31666666666670,4.43057491100366
88.45000000000000,4.43191675131510
88.60000000000000,4.43378468133767
88.73333333333330,4.43219159729623
88.86666666666670,4.43400975254992
89.00000000000000,4.43197731158982
89.15000000000000,4.42971632869131
89.28333333333330,4.42971408365562
89.41666666666670,4.42952905089120
89.55000000000000,4.43230629662982
89.70000000000000,4.43288594644676
89.83333333333330,4.43165627953774
89.98333333333330,4.43207334811721
90.11666666666670,4.43047355594443
90.25000000000000,4.43125759991217
90.38333333333330,4.43152402156593
90.53333333333330,4.43251548927989
90.66666666666670,4.43145376356801
90.80000000000000,4.43086262183225
90.95000000000000,4.43193811701409
91.08333333333330,4.42991884646306
91.21666666666670,4.42930590986922
91.36666666666670,4.43425706660009
91.50000000000000,4.43142932910052
91.63333333333330,4.43355317689334
91.76666666666670,4.43537013306394
91.91666666666670,4.43334640548300
92.05000000000000,4.43439805957474
92.18333333333330,4.43329704125620
92.31666666666670,4.43443085978341
92.46666666666670,4.43330405901275
92.60000000000000,4.43628939965959
92.75000000000000,4.43429519470670
92.88333333333330,4.43779008309632
93.01666666666670,4.43708382151549
93.16666666666670,4.43865242412253
93.30000000000000,4.43638535551848
93.45000000000000,4.43607159871341
93.58333333333330,4.43702200033744
93.71666666666670,4.43555008185672
93.86666666666670,4.43733556272899
94.00000000000000,4.43628280494219
94.15000000000000,4.43794395838646
94.28333333333330,4.43555149097430
94.43333333333330,4.43854485535814
94.56666666666670,4.43915600360225
94.70000000000000,4.43826283179832
94.85000000000000,4.43952662835806
94.98333333333330,4.43860082215081
95.13333333333330,4.43876421374544
95.26666666666670,4.43878053681418
95.41666666666670,4.43802510199589
95.55000000000000,4.43705560983184
95.68333333333330,4.43562170408324
95.83333333333330,4.43556150912448
95.96666666666670,4.43813258248445
96.11666666666670,4.43754249410763
96.26666666666670,4.43847619711546
96.40000000000000,4.43590186021721
96.53333333333330,4.43776268639637
96.68333333333330,4.44046925906862
96.81666666666670,4.43440367346378
96.96666666666670,4.43796108965178
97.10000000000000,4.43991327383466
97.25000000000000,4.43894226515569
97.38333333333330,4.43740162929907
97.53333333333330,4.43621162082782
97.66666666666670,4.43897417342236
97.81666666666670,4.43781547274663
97.95000000000000,4.43693831353225
98.08333333333330,4.43794957428128
98.23333333333330,4.43810246924594
98.36666666666670,4.43732016069428
98.51666666666670,4.43464575664511
98.66666666666670,4.43672849296567
98.80000000000000,4.43373175014179
98.95000000000000,4.43577268508007
99.10000000000000,4.44001659267974
99.23333333333330,4.43706871170428
99.38333333333330,4.43822368449189
99.51666666666670,4.43713798880247
99.66666666666670,4.43720529456155
99.80000000000000,4.43693027425009
99.93333333333330,4.43647839060684
100.08333333333300,4.43766841514812
100.23333333333300,4.43667261986853
100.36666666666700,4.43912629345567